Time,Amplitude
0.0,1.0905638759432192
0.0010000166669444492,1.0860857546044662
0.0020000333338888983,1.07579348210142
0.0030000500008333475,1.0596042623868918
0.004000066667777797,1.037590450365517
0.005000083334722245,1.0101656247531305
0.006000100001666695,0.9777460416894364
0.0070001166686111446,0.940748909476476
0.008000133335555593,0.8995923885786292
0.009000150002500042,0.8546955916226124
0.01000016666944449,0.8064785833974808
0.011000183336388941,0.7553689292744209
0.01200020000333339,0.7018214586231935
0.013000216670277839,0.6462985606073478
0.014000233337222289,0.5892635765527925
0.015000250004166738,0.531180799947774
0.016000266671111187,0.4725154764428759
0.017000283338055637,0.4137338038510199
0.018000300005000084,0.3553029321474647
0.019000316671944534,0.297690963469807
0.02000033333888898,0.24136695211798068
0.021000350005833432,0.18680075953132005
0.022000366672777882,0.13438366093748927
0.02300038333972233,0.08430076257292192
0.02400040000666678,0.03670695240258697
0.02500041667361123,-0.008258767758777574
0.026000433340555677,-0.05047331437924759
0.027000450007500128,-0.08982952220971334
0.028000466674444578,-0.126236144283879
0.029000483341389025,-0.15961785191826258
0.030000500008333476,-0.18991523471219618
0.031000516675277923,-0.2170984945262651
0.03200053334222237,-0.24120927204024417
0.033000550009166824,-0.26231919503008533
0.034000566676111274,-0.2805158095558206
0.03500058334305572,-0.29590257996029556
0.03600060001000017,-0.30859888886916975
0.03700061667694462,-0.3187400371909172
0.03800063334388907,-0.3264772441168257
0.03900065001083352,-0.3319776471209969
0.04000066667777796,-0.33542430196034684
0.04100068334472241,-0.3369945166834345
0.042000700011666864,-0.33679327928331926
0.043000716678611314,-0.3349190357340355
0.044000733345555765,-0.3314861502876642
0.045000750012500215,-0.3266249054791001
0.04600076667944466,-0.3204815021260525
0.04700078334638911,-0.3132180593290442
0.04800080001333356,-0.3049984280794497
0.04900081668027801,-0.29588320067993734
0.05000083334722246,-0.2859501761416344
0.051000850014166904,-0.27529659848731286
0.052000866681111355,-0.26407328924950757
0.053000883348055805,-0.25243807808348334
0.054000900015000255,-0.24053980502532732
0.055000916681944706,-0.22851832048534676
0.056000933348889156,-0.21650448524806873
0.0570009500158336,-0.20462017047224004
0.05800096668277805,-0.1929782576908276
0.0590009833497225,-0.18168263881101787
0.06000100001666695,-0.17082821611421747
0.0610010166836114,-0.16049422230749244
0.062001033350555845,-0.15072344925730521
0.0630010500175003,-0.14154264856776264
0.06400106668444475,-0.13296958221218486
0.0650010833513892,-0.12501302253811228
0.06600110001833365,-0.11767275226730498
0.0670011166852781,-0.11093956449574306
0.06800113335222255,-0.10479526269362624
0.069001150019167,-0.0992126607053741
0.07000116668611144,-0.09415558274962661
0.07100118335305589,-0.08958227536326348
0.07200120002000034,-0.08545608008351788
0.07300121668694479,-0.08173498266406279
0.07400123335388924,-0.07836797923686988
0.07500125002083369,-0.07529507630813072
0.07600126668777814,-0.0724472907582567
0.07700128335472259,-0.06974664984187905
0.07800130002166704,-0.06713183983410784
0.07900131668861149,-0.06466282566836527
0.08000133335555593,-0.062342652492530695
0.08100135002250038,-0.06016358465756925
0.08200136668944483,-0.05812183686436083
0.08300138335638928,-0.05621515088886181
0.08400140002333373,-0.05444194785841112
0.08500141669027818,-0.05280132825031643
0.08600143335722263,-0.05129307189185374
0.08700145002416708,-0.04991763796026784
0.08800146669111153,-0.048676164982771775
0.08900148335805598,-0.047570470836547515
0.09000150002500043,-0.04660305274874524
0.09100151669194487,-0.04577341197198797
0.09200153335888932,-0.04506642001786109
0.09300155002583377,-0.044463642297259416
0.09400156669277822,-0.04394732356162203
0.09500158335972267,-0.04350038791235672
0.09600160002666712,-0.04310643880084007
0.09700161669361157,-0.042749759028416844
0.09800163336055602,-0.04241531074640072
0.09900165002750047,-0.042088735456073494
0.10000166669444492,-0.041756354008685895
0.10100168336138937,-0.041403216111146245
0.10200170002833381,-0.041006883629737055
0.10300171669527826,-0.04054345965267131
0.10400173336222271,-0.03998972659213283
0.10500175002916716,-0.03932314621027382
0.10600176669611161,-0.038521859619215115
0.10700178336305606,-0.03756468728104603
0.10800180003000051,-0.03643112900782457
0.10900181669694496,-0.03510136396157717
0.11000183336388941,-0.03355625065429883
0.11100185003083386,-0.031786003844200904
0.11200186669777831,-0.02981385599426335
0.11300188336472275,-0.027661098217869218
0.1140019000316672,-0.02535784901991883
0.11500191669861165,-0.022935116024679583
0.1160019333655561,-0.020423949234284314
0.11700195003250055,-0.017855441028730587
0.118001966699445,-0.015260726165880988
0.11900198336638945,-0.012670981781463147
0.1200020000333339,-0.010117427389069598
0.12100201670027835,-0.007625583713836587
0.1220020333672228,-0.005196774543343826
0.12300205003416724,-0.002825970061339708
0.12400206670111169,-0.0005081827940617151
0.12500208336805615,0.00176153235438729
0.1260021000350006,0.003988078102039841
0.12700211670194506,0.006176314789063143
0.1280021333688895,0.008331060377759852
0.12900215003583393,0.01045709045256718
0.1300021667027784,0.012559138220057619
0.13100218336972283,0.014644650676277734
0.1320022000366673,0.016732721554974392
0.13300221670361173,0.018845500492929067
0.1340022333705562,0.021005094770749633
0.13500225003750063,0.023233569291179056
0.1360022667044451,0.025552946579095112
0.13700228337138953,0.027985206781510882
0.138002300038334,0.030552287667574268
0.13900231670527843,0.03327608462856819
0.14000233337222287,0.03617845067791073
0.14100235003916733,0.03927098510510457
0.14200236670611177,0.04252174223199885
0.14300238337305624,0.04588715140020276
0.14400240004000067,0.04932359947262459
0.14500241670694514,0.05278743093430754
0.14600243337388957,0.05623494789243024
0.14700245004083404,0.05962241007630592
0.14800246670777847,0.062906034837383
0.14900248337472294,0.06604199714924486
0.15000250004166737,0.06898642960760995
0.1510025167086118,0.07171373444097755
0.15200253337555628,0.07427663691023358
0.1530025500425007,0.07674877872395307
0.15400256670944518,0.07920375943628354
0.1550025833763896,0.08171513622350732
0.15600260004333408,0.08435642388404181
0.15700261671027851,0.08720109483843928
0.15800263337722298,0.09032257912938739
0.15900265004416742,0.09379426442170846
0.16000266671111185,0.0976894960023599
0.16100268337805632,0.10205719453578427
0.16200270004500075,0.10684201067448526
0.16300271671194522,0.11197326509878636
0.16400273337888965,0.11737035723401422
0.16500275004583412,0.12294639568112087
0.16600276671277855,0.1286145155275842
0.16700278337972302,0.1342878783474071
0.16800280004666746,0.13987967220111858
0.16900281671361192,0.14530311163577325
0.17000283338055636,0.15047143768495141
0.1710028500475008,0.15532081585009685
0.17200286671444526,0.1598863159207748
0.1730028833813897,0.1642297176870455
0.17400290004833416,0.16841282783597755
0.1750029167152786,0.1724974795411657
0.17600293338222306,0.17654553246272986
0.1770029500491675,0.18061887274731606
0.17800296671611196,0.18477941302809578
0.1790029833830564,0.18908909242476568
0.18000300005000086,0.19360987654354872
0.1810030167169453,0.19838668568404486
0.18200303338388973,0.20339041447096165
0.1830030500508342,0.20857191009948478
0.18400306671777863,0.21388204588635673
0.1850030833847231,0.21927172163484623
0.18600310005166754,0.22469186363474686
0.187003116718612,0.2300934246623787
0.18800313338555644,0.23542738398058685
0.1890031500525009,0.2406447473387421
0.19000316671944534,0.24569654697274126
0.1910031833863898,0.25054473830591906
0.19200320005333424,0.25519878326875495
0.19300321672027868,0.2596810989798319
0.19400323338722314,0.26401412931950663
0.19500325005416758,0.26822034465466194
0.19600326672111204,0.2723222418387054
0.19700328338805648,0.27634234421157117
0.19800330005500094,0.28030320159971844
0.19900331672194538,0.2842273903161321
0.20000333338888984,0.288137513160323
0.20100335005583428,0.2920528971667267
0.20200336672277874,0.295978465724328
0.20300338338972318,0.2999152390470375
0.20400340005666762,0.30386426466445743
0.20500341672361208,0.30782661659271504
0.20600343339055652,0.3118033953344635
0.20700345005750098,0.31579572787888144
0.20800346672444542,0.3198047677016731
0.20900348339138988,0.3238316947650686
0.21000350005833432,0.32787771551782363
0.21100351672527878,0.3319391379995394
0.21200353339222322,0.33599064322528616
0.21300355005916768,0.3400009893393374
0.21400356672611212,0.34393896080296
0.21500358339305656,0.3477733685639452
0.21600360006000102,0.351473050056611
0.21700361672694546,0.35500686920180063
0.21800363339388992,0.35834371640688295
0.21900365006083436,0.36145250856575256
0.22000366672777882,0.3643021890588292
0.22100368339472326,0.36687031584697793
0.22200370006166772,0.36917240367598153
0.22300371672861216,0.37123446207455607
0.22400373339555663,0.37308252739943787
0.22500375006250106,0.37474266249388927
0.2260037667294455,0.37624095668769775
0.22700378339638996,0.3776035257971768
0.2280038000633344,0.378856512125165
0.22900381673027886,0.38002608446102754
0.2300038333972233,0.3811384380806538
0.23100385006416777,0.3822154086193507
0.2320038667311122,0.3832593988096686
0.23300388339805667,0.38426744318186606
0.2340039000650011,0.38523660255250713
0.23500391673194554,0.3861639642246821
0.23600393339889,0.38704664198800653
0.23700395006583444,0.3878817761186214
0.2380039667327789,0.38866653337919393
0.23900398339972334,0.3893981070189164
0.2400040000666678,0.39007371677350683
0.24100401673361224,0.39068902568761954
0.2420040334005567,0.3912326676511048
0.24300405006750114,0.39169133823050195
0.2440040667344456,0.39205175939638115
0.24500408340139004,0.39230067960583775
0.24600410006833448,0.3924248738024923
0.24700411673527894,0.39241114341649114
0.24800413340222338,0.3922463163645071
0.24900415006916785,0.39191724704973785
0.2500041667361123,0.391410697232126
0.25100418340305675,0.3907060204384914
0.2520042000700012,0.389801488574789
0.2530042167369456,0.3887066297437589
0.2540042334038901,0.38743094099050485
0.25500425007083455,0.3859838881495311
0.256004266737779,0.38437490584474343
0.2570042834047234,0.3826133974894483
0.25800430007166786,0.3807087352863534
0.25900431673861235,0.3786702602275676
0.2600043334055568,0.37650728209460055
0.2610043500725012,0.3742261868311951
0.26200436673944566,0.37182032094154877
0.26300438340639015,0.36927934466373435
0.2640044000733346,0.36659288683178765
0.265004416740279,0.3637505450691459
0.26600443340722346,0.3607418857886466
0.2670044500741679,0.35755644419252886
0.2680044667411124,0.3541837242724327
0.2690044834080568,0.35061319880939923
0.27000450007500126,0.3468343093738702
0.2710045167419457,0.3428431772127484
0.2720045334088902,0.338666207926278
0.27300455007583463,0.3343383322111826
0.27400456674277907,0.329894450058522
0.2750045834097235,0.32536943024875786
0.276004600076668,0.32079811035175226
0.27700461674361243,0.3162152967267686
0.27800463341055687,0.31165576452247135
0.2790046500775013,0.3071542576769259
0.28000466674444574,0.3027454889175988
0.28100468341139023,0.29845630775182985
0.28200470007833467,0.29427799231870644
0.2830047167452791,0.2901917136366382
0.28400473341222354,0.28617861085312035
0.28500475007916803,0.2822197919050488
0.28600476674611247,0.27829633351872163
0.2870047834130569,0.2743892812098368
0.28800480008000134,0.2704796492834941
0.2890048167469458,0.26654842083419406
0.2900048334138903,0.26257654774583794
0.2910048500808347,0.258546431718041
0.29200486674777915,0.2544471942655671
0.2930048834147236,0.2502698482451304
0.2940049000816681,0.2460053754422262
0.2950049167486125,0.24164472643175106
0.29600493341555695,0.23717882057800288
0.2970049500825014,0.23259854603468014
0.2980049667494459,0.2278947597448828
0.2990049834163903,0.22305828744111145
0.30000500008333475,0.21807992364526804
0.3010050167502792,0.2129570501808381
0.3020050334172236,0.2077172704925304
0.3030050500841681,0.20239676391483724
0.30400506675111255,0.19703167645148698
0.305005083418057,0.1916581228956096
0.3060051000850014,0.1863121868297355
0.3070051167519459,0.18102992062579623
0.30800513341889035,0.17584734544512481
0.3090051500858348,0.17080045123845472
0.3100051667527792,0.16592519674592093
0.31100518341972366,0.161247688261744
0.31200520008666816,0.15674882607994287
0.3130052167536126,0.1523964988424227
0.31400523342055703,0.14815856284078996
0.31500525008750146,0.1440028431560522
0.31600526675444596,0.13989713365861772
0.3170052834213904,0.13580919700829602
0.31800530008833483,0.1317067646542976
0.31900531675527927,0.12755753683523413
0.3200053334222237,0.12332918257911821
0.3210053500891682,0.11899704186256908
0.32200536675611263,0.11457201154553934
0.32300538342305707,0.11007522890743995
0.3240054000900015,0.10552780100484649
0.325005416756946,0.10095080368373685
0.32600543342389043,0.09636528157948905
0.32700545009083487,0.09179224811688233
0.3280054667577793,0.08725268551009731
0.3290054834247238,0.0827675447627153
0.33000550009166824,0.07835774566771903
0.3310055167586127,0.07404129408309079
0.3320055334255571,0.06982278459617142
0.33300555009250155,0.06570290146339362
0.33400556675944604,0.06168229732321853
0.3350055834263905,0.05776159360350933
0.3360056000933349,0.05394138052152952
0.33700561676027935,0.05022221708394396
0.33800563342722384,0.046604631086818844
0.3390056500941683,0.04308911911562064
0.3400056667611127,0.039676146545217644
0.34100568342805715,0.03636539819083143
0.3420057000950016,0.033153033822818236
0.3430057167619461,0.03003416454116353
0.3440057334288905,0.027003870118887968
0.34500575009583495,0.024057199118413683
0.3460057667627794,0.021189168891563137
0.3470057834297239,0.01839476557956072
0.3480058000966683,0.015668944113031054
0.34900581676361275,0.013006620012511398
0.3500058334305572,0.010401704153514936
0.3510058500975017,0.007848108512759088
0.3520058667644461,0.005344872512619099
0.35300588343139055,0.0028925106531441282
0.354005900098335,0.000491545135427005
0.35500591676527943,-0.0018574943207144978
0.3560059334322239,-0.0041540704767371725
0.35700595009916836,-0.00639763857537296
0.3580059667661128,-0.008587646340628245
0.35900598343305723,-0.010723533977784586
0.3600060001000017,-0.012804734173398015
0.36100601676694616,-0.01483068145677452
0.3620060334338906,-0.016800846882864116
0.36300605010083503,-0.018714706929326867
0.36400606676777947,-0.020571730556839415
0.36500608343472396,-0.022371379207353603
0.3660061001016684,-0.024113106804095816
0.36700611676861283,-0.025796359751567438
0.36800613343555727,-0.027420576935544505
0.36900615010250176,-0.028985189723077898
0.3700061667694462,-0.030489621962493312
0.37100618343639064,-0.03193363612958085
0.37200620010333507,-0.03331862313305036
0.37300621677027956,-0.034646449199081976
0.374006233437224,-0.0359189731053996
0.37500625010416844,-0.037138046111001966
0.3760062667711129,-0.038305511956162434
0.3770062834380573,-0.03942320686242946
0.3780063001050018,-0.040492959532625925
0.37900631677194624,-0.04151659115084986
0.3800063334388907,-0.04249591538247385
0.3810063501058351,-0.04343274115125024
0.3820063667727796,-0.044328883046853944
0.38300638343972404,-0.045186152048953154
0.3840064001066685,-0.04600635161910426
0.3850064167736129,-0.04679127770013857
0.38600643344055735,-0.04754271871616215
0.38700645010750184,-0.04826245557255575
0.3880064667744463,-0.04895226165597502
0.3890064834413907,-0.04961390283435065
0.39000650010833515,-0.050249137456887694
0.39100651677527964,-0.05085940249125168
0.3920065334422241,-0.05144463052333675
0.3930065501091685,-0.052004300878383
0.39400656677611295,-0.05253788528757374
0.3950065834430574,-0.05304484796336682
0.3960066001100019,-0.05352464559949519
0.3970066167769463,-0.053976727370966454
0.39800663344389076,-0.05440053493406297
0.3990066501108352,-0.05479550242634218
0.4000066667777797,-0.05516105646663595
0.4010066834447241,-0.05549745586780802
0.40200670011166856,-0.05580892089165717
0.403006716778613,-0.05610078515075655
0.4040067334455575,-0.05637837173588627
0.4050067501125019,-0.05664699629182961
0.40600676677944636,-0.05691196694464502
0.4070067834463908,-0.05717858430166568
0.40800680011333523,-0.05745214145149953
0.4090068167802797,-0.05773792396402934
0.41000683344722416,-0.058041209890412684
0.4110068501141686,-0.058364804231332314
0.41200686678111303,-0.058699638957268006
0.4130068834480575,-0.05903307354529602
0.41400690011500196,-0.05935245925959973
0.4150069167819464,-0.05964513984563695
0.41600693344889084,-0.059898451530140714
0.4170069501158353,-0.06009972302111856
0.41800696678277977,-0.0602362755078529
0.4190069834497242,-0.0602954226609011
0.42000700011666864,-0.060264470632095044
0.4210070167836131,-0.060135238141646986
0.42200703345055757,-0.05992138835247537
0.423007050117502,-0.059643171583004445
0.42400706678444644,-0.05932083200754947
0.4250070834513909,-0.05897460628170049
0.42600710011833537,-0.058624723542322295
0.4270071167852798,-0.05829140540755439
0.42800713345222424,-0.05799486597681132
0.4290071501191687,-0.05775531183078211
0.4300071667861131,-0.05759294203143087
0.4310071834530576,-0.05752478662734064
0.43200720012000204,-0.05755251475180157
0.4330072167869465,-0.05767313387973388
0.4340072334538909,-0.05788364293058663
0.4350072501208354,-0.05818103330508369
0.43600726678777985,-0.05856228888522376
0.4370072834547243,-0.05902438603428027
0.4380073001216687,-0.059564293596801515
0.43900731678861316,-0.060178972898610614
0.44000733345555765,-0.060865377746805414
0.4410073501225021,-0.061616421577609194
0.4420073667894465,-0.06240533627700282
0.44300738345639096,-0.0631993557629211
0.44400740012333545,-0.06396570501081647
0.4450074167902799,-0.06467160147741631
0.4460074334572243,-0.06528425510072233
0.44700745012416876,-0.0657708683000116
0.44800746679111325,-0.06609861869674502
0.4490074834580577,-0.06623373145497806
0.4500075001250021,-0.06614270741516892
0.45100751679194656,-0.06580356658798664
0.452007533458891,-0.06524832459108484
0.4530075501258355,-0.06452550917173563
0.4540075667927799,-0.06368364943623009
0.45500758345972436,-0.062771271668417
0.4560076001266688,-0.06183689932970313
0.4570076167936133,-0.06092905305905336
0.45800763346055773,-0.06009625067299029
0.45900765012750216,-0.05938700716559455
0.4600076667944466,-0.05884983470850463
0.46100768346139104,-0.058521579372505204
0.46200770012833553,-0.058381667231466296
0.46300771679527997,-0.05839188281107339
0.4640077334622244,-0.058514003063929614
0.46500775012916884,-0.058709802120196254
0.46600776679611333,-0.05894105128759247
0.46700778346305777,-0.05916951905139526
0.4680078001300022,-0.05935697107443974
0.46900781679694664,-0.05946517019711868
0.4700078334638911,-0.059455876437383134
0.47100785013083557,-0.05929867610678472
0.47200786679778,-0.059001869988723886
0.47300788346472444,-0.05858570303769486
0.4740079001316689,-0.05807042080369861
0.47500791679861337,-0.05747626601429412
0.4760079334655578,-0.05682347857459793
0.47700795013250225,-0.056132295567285044
0.4780079667994467,-0.05542295125258793
0.4790079834663912,-0.05471567706829725
0.4800080001333356,-0.054030701629761486
0.48100801680028005,-0.053386269019884136
0.4820080334672245,-0.05279077576074903
0.4830080501341689,-0.05224956425085146
0.4840080668011134,-0.05176797314020937
0.48500808346805785,-0.05135133825639843
